Photon    Tot. w/  
Energy    Coherent  (cm2 / g)

1.000E-03 4.590E+03 
1.500E-03 1.549E+03 
2.000E-03 6.950E+02 
3.000E-03 2.171E+02 
4.000E-03 9.315E+01 
5.000E-03 4.791E+01 
6.000E-03 2.770E+01 
8.000E-03 1.163E+01 
1.000E-02 5.953E+00 
1.500E-02 1.836E+00 
2.000E-02 8.653E-01 
3.000E-02 3.779E-01 
4.000E-02 2.585E-01 
5.000E-02 2.133E-01 
6.000E-02 1.907E-01 
8.000E-02 1.679E-01 
1.000E-01 1.551E-01 
1.500E-01 1.361E-01 
2.000E-01 1.237E-01 
3.000E-01 1.070E-01 
4.000E-01 9.566E-02 
5.000E-01 8.730E-02 
6.000E-01 8.070E-02 
8.000E-01 7.087E-02 
1.000E+00 6.372E-02 
1.022E+00 6.304E-02 
1.250E+00 5.697E-02 
1.500E+00 5.185E-02 
2.000E+00 4.460E-02 
2.044E+00 4.406E-02 
3.000E+00 3.597E-02 
4.000E+00 3.100E-02 
5.000E+00 2.777E-02 
6.000E+00 2.552E-02 
7.000E+00 2.388E-02 
8.000E+00 2.263E-02 
9.000E+00 2.166E-02 
1.000E+01 2.089E-02 
1.100E+01 2.026E-02 
1.200E+01 1.974E-02 
1.300E+01 1.931E-02 
1.400E+01 1.896E-02 
1.500E+01 1.866E-02 
1.600E+01 1.841E-02 
1.800E+01 1.800E-02 
2.000E+01 1.770E-02 
2.200E+01 1.749E-02 
2.400E+01 1.733E-02 
2.600E+01 1.720E-02 
2.800E+01 1.712E-02 
3.000E+01 1.706E-02 
4.000E+01 1.696E-02 
5.000E+01 1.706E-02 
6.000E+01 1.722E-02 
8.000E+01 1.759E-02 
1.000E+02 1.794E-02 
1.500E+02 1.866E-02 
2.000E+02 1.917E-02 
3.000E+02 1.985E-02 
4.000E+02 2.028E-02 
5.000E+02 2.057E-02 
6.000E+02 2.079E-02 
8.000E+02 2.108E-02 
1.000E+03 2.128E-02 
1.500E+03 2.158E-02 
2.000E+03 2.174E-02 
3.000E+03 2.193E-02 
4.000E+03 2.203E-02 
5.000E+03 2.209E-02 
6.000E+03 2.214E-02 
8.000E+03 2.219E-02 
1.000E+04 2.223E-02 
1.500E+04 2.229E-02 
2.000E+04 2.232E-02 
3.000E+04 2.235E-02 
4.000E+04 2.236E-02 
5.000E+04 2.237E-02 
6.000E+04 2.238E-02 
8.000E+04 2.239E-02 
1.000E+05 2.240E-02