Photon    Tot. w/  
Energy    Coherent (barn/atom)

1.000E-03 7.322E+04 
1.500E-03 2.498E+04 
1.839E-03 1.442E+04 
1.839E-03 1.489E+05 
2.000E-03 1.295E+05 
3.000E-03 4.563E+04 
4.000E-03 2.112E+04 
5.000E-03 1.143E+04 
6.000E-03 6.855E+03 
8.000E-03 3.017E+03 
1.000E-02 1.580E+03 
1.500E-02 4.820E+02 
2.000E-02 2.082E+02 
3.000E-02 6.698E+01 
4.000E-02 3.269E+01 
5.000E-02 2.045E+01 
6.000E-02 1.495E+01 
8.000E-02 1.039E+01 
1.000E-01 8.560E+00 
1.500E-01 6.755E+00 
2.000E-01 5.948E+00 
3.000E-01 5.045E+00 
4.000E-01 4.484E+00 
5.000E-01 4.080E+00 
6.000E-01 3.767E+00 
8.000E-01 3.303E+00 
1.000E+00 2.967E+00 
1.022E+00 2.935E+00 
1.250E+00 2.653E+00 
1.500E+00 2.417E+00 
2.000E+00 2.090E+00 
2.044E+00 2.067E+00 
3.000E+00 1.715E+00 
4.000E+00 1.511E+00 
5.000E+00 1.384E+00 
6.000E+00 1.300E+00 
7.000E+00 1.242E+00 
8.000E+00 1.201E+00 
9.000E+00 1.170E+00 
1.000E+01 1.148E+00 
1.100E+01 1.131E+00 
1.200E+01 1.118E+00 
1.300E+01 1.109E+00 
1.400E+01 1.102E+00 
1.500E+01 1.097E+00 
1.600E+01 1.094E+00 
1.800E+01 1.090E+00 
2.000E+01 1.090E+00 
2.200E+01 1.093E+00 
2.400E+01 1.096E+00 
2.600E+01 1.101E+00 
2.800E+01 1.106E+00 
3.000E+01 1.112E+00 
4.000E+01 1.145E+00 
5.000E+01 1.176E+00 
6.000E+01 1.204E+00 
8.000E+01 1.252E+00 
1.000E+02 1.289E+00 
1.500E+02 1.355E+00 
2.000E+02 1.397E+00 
3.000E+02 1.451E+00 
4.000E+02 1.484E+00 
5.000E+02 1.506E+00 
6.000E+02 1.522E+00 
8.000E+02 1.545E+00 
1.000E+03 1.560E+00 
1.500E+03 1.581E+00 
2.000E+03 1.593E+00 
3.000E+03 1.606E+00 
4.000E+03 1.614E+00 
5.000E+03 1.618E+00 
6.000E+03 1.622E+00 
8.000E+03 1.626E+00 
1.000E+04 1.629E+00 
1.500E+04 1.632E+00 
2.000E+04 1.634E+00 
3.000E+04 1.637E+00 
4.000E+04 1.638E+00 
5.000E+04 1.638E+00 
6.000E+04 1.639E+00 
8.000E+04 1.639E+00 
1.000E+05 1.640E+00 