Photon    Tot. w/  
Energy    Coherent  (cm2/g)

1.000E-03 7.662E+03 
1.003E-03 7.613E+03 
1.006E-03 7.565E+03 
1.006E-03 7.848E+03 
1.500E-03 3.195E+03 
2.000E-03 1.604E+03 
3.000E-03 5.866E+02 
4.000E-03 2.823E+02 
4.341E-03 2.288E+02 
4.341E-03 6.448E+02 
4.475E-03 6.071E+02 
4.612E-03 5.717E+02 
4.612E-03 7.675E+02 
4.773E-03 7.087E+02 
4.939E-03 6.545E+02 
4.939E-03 7.530E+02 
5.000E-03 7.303E+02 
6.000E-03 4.628E+02 
8.000E-03 2.183E+02 
1.000E-02 1.212E+02 
1.500E-02 4.096E+01 
2.000E-02 1.889E+01 
3.000E-02 6.375E+00 
3.181E-02 5.455E+00 
3.181E-02 2.981E+01 
4.000E-02 1.656E+01 
5.000E-02 9.197E+00 
6.000E-02 5.667E+00 
8.000E-02 2.636E+00 
1.000E-01 1.471E+00 
1.500E-01 5.465E-01 
2.000E-01 2.989E-01 
3.000E-01 1.557E-01 
4.000E-01 1.122E-01 
5.000E-01 9.208E-02 
6.000E-01 8.032E-02 
8.000E-01 6.648E-02 
1.000E+00 5.810E-02 
1.022E+00 5.736E-02 
1.250E+00 5.113E-02 
1.500E+00 4.652E-02 
2.000E+00 4.099E-02 
2.044E+00 4.065E-02 
3.000E+00 3.604E-02 
4.000E+00 3.415E-02 
5.000E+00 3.348E-02 
6.000E+00 3.337E-02 
7.000E+00 3.358E-02 
8.000E+00 3.398E-02 
9.000E+00 3.449E-02 
1.000E+01 3.505E-02 
1.100E+01 3.565E-02 
1.200E+01 3.626E-02 
1.300E+01 3.687E-02 
1.400E+01 3.747E-02 
1.500E+01 3.804E-02 
1.600E+01 3.859E-02 
1.800E+01 3.965E-02 
2.000E+01 4.066E-02 
2.200E+01 4.162E-02 
2.400E+01 4.252E-02 
2.600E+01 4.336E-02 
2.800E+01 4.415E-02 
3.000E+01 4.489E-02 
4.000E+01 4.805E-02 
5.000E+01 5.052E-02 
6.000E+01 5.247E-02 
8.000E+01 5.551E-02 
1.000E+02 5.768E-02 
1.500E+02 6.128E-02 
2.000E+02 6.350E-02 
3.000E+02 6.610E-02 
4.000E+02 6.764E-02 
5.000E+02 6.866E-02 
6.000E+02 6.939E-02 
8.000E+02 7.035E-02 
1.000E+03 7.100E-02 
1.500E+03 7.189E-02 
2.000E+03 7.240E-02 
3.000E+03 7.295E-02 
4.000E+03 7.326E-02 
5.000E+03 7.346E-02 
6.000E+03 7.358E-02 
8.000E+03 7.374E-02 
1.000E+04 7.386E-02 
1.500E+04 7.402E-02 
2.000E+04 7.410E-02 
3.000E+04 7.418E-02 
4.000E+04 7.422E-02 
5.000E+04 7.426E-02 
6.000E+04 7.426E-02 
8.000E+04 7.430E-02 
1.000E+05 7.430E-02 