Photon    Tot. w/  
Energy    Coherent (barn/atom)

1.000E-03 1.609E+06 
1.500E-03 7.241E+05 
2.000E-03 3.943E+05 
2.295E-03 2.923E+05 
2.295E-03 3.295E+05 
2.339E-03 4.829E+05 
2.385E-03 7.087E+05 
2.385E-03 7.642E+05 
2.606E-03 7.273E+05 
2.847E-03 6.922E+05 
2.847E-03 7.989E+05 
3.000E-03 7.053E+05 
3.278E-03 5.676E+05 
3.278E-03 6.022E+05 
3.417E-03 5.460E+05 
3.562E-03 4.952E+05 
3.562E-03 5.161E+05 
4.000E-03 3.926E+05 
5.000E-03 2.288E+05 
6.000E-03 1.461E+05 
8.000E-03 7.130E+04 
1.000E-02 4.067E+04 
1.228E-02 2.420E+04 
1.228E-02 5.928E+04 
1.321E-02 4.885E+04 
1.421E-02 4.027E+04 
1.421E-02 5.540E+04 
1.452E-02 5.262E+04 
1.484E-02 4.999E+04 
1.484E-02 5.767E+04 
1.500E-02 5.598E+04 
2.000E-02 2.706E+04 
3.000E-02 9.463E+03 
4.000E-02 4.470E+03 
5.000E-02 2.499E+03 
6.000E-02 1.560E+03 
8.000E-02 7.524E+02 
8.310E-02 6.845E+02 
8.310E-02 2.820E+03 
1.000E-01 1.758E+03 
1.500E-01 6.358E+02 
2.000E-01 3.149E+02 
3.000E-01 1.277E+02 
4.000E-01 7.406E+01 
5.000E-01 5.180E+01 
6.000E-01 4.031E+01 
8.000E-01 2.891E+01 
1.000E+00 2.329E+01 
1.022E+00 2.285E+01 
1.250E+00 1.936E+01 
1.500E+00 1.725E+01 
2.000E+00 1.524E+01 
2.044E+00 1.514E+01 
3.000E+00 1.401E+01 
4.000E+00 1.390E+01 
5.000E+00 1.414E+01 
6.000E+00 1.453E+01 
7.000E+00 1.498E+01 
8.000E+00 1.547E+01 
9.000E+00 1.595E+01 
1.000E+01 1.644E+01 
1.100E+01 1.692E+01 
1.200E+01 1.739E+01 
1.300E+01 1.784E+01 
1.400E+01 1.828E+01 
1.500E+01 1.870E+01 
1.600E+01 1.909E+01 
1.800E+01 1.983E+01 
2.000E+01 2.050E+01 
2.200E+01 2.111E+01 
2.400E+01 2.169E+01 
2.600E+01 2.222E+01 
2.800E+01 2.272E+01 
3.000E+01 2.319E+01 
4.000E+01 2.511E+01 
5.000E+01 2.658E+01 
6.000E+01 2.774E+01 
8.000E+01 2.948E+01 
1.000E+02 3.071E+01 
1.500E+02 3.269E+01 
2.000E+02 3.387E+01 
3.000E+02 3.526E+01 
4.000E+02 3.606E+01 
5.000E+02 3.659E+01 
6.000E+02 3.696E+01 
8.000E+02 3.746E+01 
1.000E+03 3.779E+01 
1.500E+03 3.826E+01 
2.000E+03 3.851E+01 
3.000E+03 3.880E+01 
4.000E+03 3.894E+01 
5.000E+03 3.904E+01 
6.000E+03 3.911E+01 
8.000E+03 3.919E+01 
1.000E+04 3.924E+01 
1.500E+04 3.932E+01 
2.000E+04 3.936E+01 
3.000E+04 3.940E+01 
4.000E+04 3.942E+01 
5.000E+04 3.944E+01 
6.000E+04 3.945E+01 
8.000E+04 3.946E+01 
1.000E+05 3.947E+01 