Photon    Tot. w/  
Energy    Coherent (barn/atom)

1.000E-03 2.112E+05 
1.500E-03 7.328E+04 
2.000E-03 3.396E+04 
3.000E-03 1.130E+04 
3.203E-03 9.447E+03 
3.203E-03 8.457E+04 
4.000E-03 5.023E+04 
5.000E-03 2.803E+04 
6.000E-03 1.720E+04 
8.000E-03 7.827E+03 
1.000E-02 4.189E+03 
1.500E-02 1.316E+03 
2.000E-02 5.725E+02 
3.000E-02 1.788E+02 
4.000E-02 8.147E+01 
5.000E-02 4.651E+01 
6.000E-02 3.094E+01 
8.000E-02 1.831E+01 
1.000E-01 1.355E+01 
1.500E-01 9.463E+00 
2.000E-01 7.994E+00 
3.000E-01 6.603E+00 
4.000E-01 5.822E+00 
5.000E-01 5.279E+00 
6.000E-01 4.865E+00 
8.000E-01 4.258E+00 
1.000E+00 3.822E+00 
1.022E+00 3.781E+00 
1.250E+00 3.416E+00 
1.500E+00 3.115E+00 
2.000E+00 2.702E+00 
2.044E+00 2.674E+00 
3.000E+00 2.245E+00 
4.000E+00 2.003E+00 
5.000E+00 1.859E+00 
6.000E+00 1.769E+00 
7.000E+00 1.709E+00 
8.000E+00 1.670E+00 
9.000E+00 1.644E+00 
1.000E+01 1.626E+00 
1.100E+01 1.615E+00 
1.200E+01 1.608E+00 
1.300E+01 1.604E+00 
1.400E+01 1.603E+00 
1.500E+01 1.604E+00 
1.600E+01 1.607E+00 
1.800E+01 1.616E+00 
2.000E+01 1.627E+00 
2.200E+01 1.641E+00 
2.400E+01 1.655E+00 
2.600E+01 1.669E+00 
2.800E+01 1.684E+00 
3.000E+01 1.699E+00 
4.000E+01 1.770E+00 
5.000E+01 1.833E+00 
6.000E+01 1.885E+00 
8.000E+01 1.970E+00 
1.000E+02 2.036E+00 
1.500E+02 2.150E+00 
2.000E+02 2.222E+00 
3.000E+02 2.312E+00 
4.000E+02 2.366E+00 
5.000E+02 2.402E+00 
6.000E+02 2.429E+00 
8.000E+02 2.465E+00 
1.000E+03 2.488E+00 
1.500E+03 2.523E+00 
2.000E+03 2.542E+00 
3.000E+03 2.563E+00 
4.000E+03 2.575E+00 
5.000E+03 2.581E+00 
6.000E+03 2.586E+00 
8.000E+03 2.593E+00 
1.000E+04 2.597E+00 
1.500E+04 2.603E+00 
2.000E+04 2.607E+00 
3.000E+04 2.610E+00 
4.000E+04 2.612E+00 
5.000E+04 2.613E+00 
6.000E+04 2.613E+00 
8.000E+04 2.614E+00 
1.000E+05 2.615E+00 