Photon    Tot. w/  
Energy    Coherent (barn/atom)

1.000E-03 5.310E+04 
1.500E-03 1.802E+04 
1.560E-03 1.622E+04 
1.560E-03 1.773E+05 
2.000E-03 1.014E+05 
3.000E-03 3.531E+04 
4.000E-03 1.615E+04 
5.000E-03 8.665E+03 
6.000E-03 5.166E+03 
8.000E-03 2.255E+03 
1.000E-02 1.174E+03 
1.500E-02 3.564E+02 
2.000E-02 1.542E+02 
3.000E-02 5.055E+01 
4.000E-02 2.547E+01 
5.000E-02 1.649E+01 
6.000E-02 1.245E+01 
8.000E-02 9.040E+00 
1.000E-01 7.636E+00 
1.500E-01 6.176E+00 
2.000E-01 5.480E+00 
3.000E-01 4.670E+00 
4.000E-01 4.156E+00 
5.000E-01 3.784E+00 
6.000E-01 3.496E+00 
8.000E-01 3.065E+00 
1.000E+00 2.754E+00 
1.022E+00 2.724E+00 
1.250E+00 2.462E+00 
1.500E+00 2.243E+00 
2.000E+00 1.937E+00 
2.044E+00 1.916E+00 
3.000E+00 1.586E+00 
4.000E+00 1.392E+00 
5.000E+00 1.271E+00 
6.000E+00 1.190E+00 
7.000E+00 1.133E+00 
8.000E+00 1.092E+00 
9.000E+00 1.062E+00 
1.000E+01 1.039E+00 
1.100E+01 1.021E+00 
1.200E+01 1.008E+00 
1.300E+01 9.971E-01 
1.400E+01 9.892E-01 
1.500E+01 9.833E-01 
1.600E+01 9.788E-01 
1.800E+01 9.734E-01 
2.000E+01 9.714E-01 
2.200E+01 9.715E-01 
2.400E+01 9.733E-01 
2.600E+01 9.761E-01 
2.800E+01 9.797E-01 
3.000E+01 9.838E-01 
4.000E+01 1.008E+00 
5.000E+01 1.033E+00 
6.000E+01 1.056E+00 
8.000E+01 1.096E+00 
1.000E+02 1.128E+00 
1.500E+02 1.183E+00 
2.000E+02 1.220E+00 
3.000E+02 1.266E+00 
4.000E+02 1.294E+00 
5.000E+02 1.313E+00 
6.000E+02 1.327E+00 
8.000E+02 1.346E+00 
1.000E+03 1.359E+00 
1.500E+03 1.377E+00 
2.000E+03 1.388E+00 
3.000E+03 1.399E+00 
4.000E+03 1.406E+00 
5.000E+03 1.410E+00 
6.000E+03 1.413E+00 
8.000E+03 1.416E+00 
1.000E+04 1.419E+00 
1.500E+04 1.422E+00 
2.000E+04 1.424E+00 
3.000E+04 1.426E+00 
4.000E+04 1.427E+00 
5.000E+04 1.428E+00 
6.000E+04 1.428E+00 
8.000E+04 1.429E+00 
1.000E+05 1.429E+00