Photon    Tot. w/  
Energy    Coherent (barn/atom) 

1.000E-03 2.052E+06 
1.072E-03 1.775E+06 
1.149E-03 1.535E+06 
1.149E-03 1.601E+06 
1.500E-03 8.905E+05 
2.000E-03 4.551E+05 
3.000E-03 1.696E+05 
4.000E-03 8.256E+04 
4.782E-03 5.251E+04 
4.782E-03 1.513E+05 
5.000E-03 1.394E+05 
5.104E-03 1.318E+05 
5.104E-03 1.784E+05 
5.275E-03 1.649E+05 
5.453E-03 1.524E+05 
5.453E-03 1.758E+05 
6.000E-03 1.390E+05 
8.000E-03 6.612E+04 
1.000E-02 3.686E+04 
1.500E-02 1.252E+04 
2.000E-02 5.780E+03 
3.000E-02 1.947E+03 
3.456E-02 1.336E+03 
3.456E-02 7.228E+03 
4.000E-02 4.950E+03 
5.000E-02 2.775E+03 
6.000E-02 1.706E+03 
8.000E-02 7.920E+02 
1.000E-01 4.383E+02 
1.500E-01 1.570E+02 
2.000E-01 8.196E+01 
3.000E-01 3.917E+01 
4.000E-01 2.666E+01 
5.000E-01 2.115E+01 
6.000E-01 1.805E+01 
8.000E-01 1.460E+01 
1.000E+00 1.261E+01 
1.022E+00 1.243E+01 
1.250E+00 1.102E+01 
1.500E+00 1.002E+01 
2.000E+00 8.891E+00 
2.044E+00 8.825E+00 
3.000E+00 8.025E+00 
4.000E+00 7.799E+00 
5.000E+00 7.812E+00 
6.000E+00 7.922E+00 
7.000E+00 8.086E+00 
8.000E+00 8.278E+00 
9.000E+00 8.483E+00 
1.000E+01 8.692E+00 
1.100E+01 8.903E+00 
1.200E+01 9.109E+00 
1.300E+01 9.313E+00 
1.400E+01 9.505E+00 
1.500E+01 9.690E+00 
1.600E+01 9.864E+00 
1.800E+01 1.019E+01 
2.000E+01 1.050E+01 
2.200E+01 1.078E+01 
2.400E+01 1.105E+01 
2.600E+01 1.130E+01 
2.800E+01 1.153E+01 
3.000E+01 1.175E+01 
4.000E+01 1.265E+01 
5.000E+01 1.335E+01 
6.000E+01 1.391E+01 
8.000E+01 1.474E+01 
1.000E+02 1.535E+01 
1.500E+02 1.633E+01 
2.000E+02 1.693E+01 
3.000E+02 1.764E+01 
4.000E+02 1.805E+01 
5.000E+02 1.832E+01 
6.000E+02 1.851E+01 
8.000E+02 1.877E+01 
1.000E+03 1.894E+01 
1.500E+03 1.919E+01 
2.000E+03 1.933E+01 
3.000E+03 1.947E+01 
4.000E+03 1.955E+01 
5.000E+03 1.960E+01 
6.000E+03 1.964E+01 
8.000E+03 1.968E+01 
1.000E+04 1.971E+01 
1.500E+04 1.975E+01 
2.000E+04 1.977E+01 
3.000E+04 1.980E+01 
4.000E+04 1.981E+01 
5.000E+04 1.982E+01 
6.000E+04 1.982E+01 
8.000E+04 1.983E+01 
1.000E+05 1.983E+01
