Photon    Tot. w/  
Energy    Coherent (barn/atom) 

1.000E-03 4.409E+04 
1.500E-03 1.397E+04 
2.000E-03 6.034E+03 
3.000E-03 1.801E+03 
4.000E-03 7.536E+02 
5.000E-03 3.813E+02 
6.000E-03 2.183E+02 
8.000E-03 9.127E+01 
1.000E-02 4.733E+01 
1.500E-02 1.610E+01 
2.000E-02 8.815E+00 
3.000E-02 5.109E+00 
4.000E-02 4.141E+00 
5.000E-02 3.731E+00 
6.000E-02 3.497E+00 
8.000E-02 3.211E+00 
1.000E-01 3.019E+00 
1.500E-01 2.686E+00 
2.000E-01 2.452E+00 
3.000E-01 2.127E+00 
4.000E-01 1.904E+00 
5.000E-01 1.738E+00 
6.000E-01 1.607E+00 
8.000E-01 1.411E+00 
1.000E+00 1.269E+00 
1.022E+00 1.256E+00 
1.250E+00 1.135E+00 
1.500E+00 1.033E+00 
2.000E+00 8.861E-01 
2.044E+00 8.757E-01 
3.000E+00 7.105E-01 
4.000E+00 6.078E-01 
5.000E+00 5.402E-01 
6.000E+00 4.924E-01 
7.000E+00 4.570E-01 
8.000E+00 4.297E-01 
9.000E+00 4.082E-01 
1.000E+01 3.908E-01 
1.100E+01 3.766E-01 
1.200E+01 3.646E-01 
1.300E+01 3.545E-01 
1.400E+01 3.461E-01 
1.500E+01 3.387E-01 
1.600E+01 3.324E-01 
1.800E+01 3.221E-01 
2.000E+01 3.142E-01 
2.200E+01 3.081E-01 
2.400E+01 3.032E-01 
2.600E+01 2.993E-01 
2.800E+01 2.961E-01 
3.000E+01 2.935E-01 
4.000E+01 2.865E-01 
5.000E+01 2.844E-01 
6.000E+01 2.844E-01 
8.000E+01 2.869E-01 
1.000E+02 2.905E-01 
1.500E+02 2.994E-01 
2.000E+02 3.064E-01 
3.000E+02 3.164E-01 
4.000E+02 3.230E-01 
5.000E+02 3.277E-01 
6.000E+02 3.313E-01 
8.000E+02 3.362E-01 
1.000E+03 3.395E-01 
1.500E+03 3.445E-01 
2.000E+03 3.474E-01 
3.000E+03 3.506E-01 
4.000E+03 3.524E-01 
5.000E+03 3.536E-01 
6.000E+03 3.543E-01 
8.000E+03 3.555E-01 
1.000E+04 3.561E-01 
1.500E+04 3.571E-01 
2.000E+04 3.576E-01 
3.000E+04 3.581E-01 
4.000E+04 3.585E-01 
5.000E+04 3.586E-01 
6.000E+04 3.588E-01 
8.000E+04 3.589E-01 
1.000E+05 3.590E-01 