Photon    Tot. w/  
Energy    Coherent (barn/atom)

1.000E-03 2.548E+06 
1.081E-03 2.211E+06 
1.168E-03 1.918E+06 
1.168E-03 1.945E+06 
1.246E-03 1.718E+06 
1.329E-03 1.518E+06 
1.329E-03 1.548E+06 
1.500E-03 1.218E+06 
2.000E-03 6.710E+05 
3.000E-03 2.766E+05 
3.332E-03 2.185E+05 
3.332E-03 5.370E+05 
3.410E-03 5.036E+05 
3.491E-03 4.722E+05 
3.491E-03 6.740E+05 
4.000E-03 4.828E+05 
4.046E-03 4.690E+05 
4.046E-03 5.451E+05 
4.421E-03 4.372E+05 
4.830E-03 3.508E+05 
4.830E-03 3.720E+05 
5.000E-03 3.420E+05 
5.182E-03 3.133E+05 
5.182E-03 3.267E+05 
6.000E-03 2.291E+05 
8.000E-03 1.132E+05 
1.000E-02 6.509E+04 
1.500E-02 2.366E+04 
1.630E-02 1.923E+04 
1.630E-02 4.455E+04 
1.792E-02 3.461E+04 
1.969E-02 2.691E+04 
1.969E-02 3.803E+04 
2.000E-02 3.609E+04 
2.047E-02 3.410E+04 
2.047E-02 3.922E+04 
3.000E-02 1.499E+04 
4.000E-02 7.186E+03 
5.000E-02 4.053E+03 
6.000E-02 2.540E+03 
8.000E-02 1.224E+03 
1.000E-01 7.051E+02 
1.097E-01 5.644E+02 
1.097E-01 2.056E+03 
1.500E-01 9.525E+02 
2.000E-01 4.754E+02 
3.000E-01 1.903E+02 
4.000E-01 1.075E+02 
5.000E-01 7.302E+01 
6.000E-01 5.529E+01 
8.000E-01 3.800E+01 
1.000E+00 2.970E+01 
1.022E+00 2.904E+01 
1.250E+00 2.409E+01 
1.500E+00 2.118E+01 
2.000E+00 1.854E+01 
2.044E+00 1.841E+01 
3.000E+00 1.694E+01 
4.000E+00 1.675E+01 
5.000E+00 1.703E+01 
6.000E+00 1.750E+01 
7.000E+00 1.805E+01 
8.000E+00 1.864E+01 
9.000E+00 1.924E+01 
1.000E+01 1.984E+01 
1.100E+01 2.043E+01 
1.200E+01 2.101E+01 
1.300E+01 2.157E+01 
1.400E+01 2.211E+01 
1.500E+01 2.262E+01 
1.600E+01 2.311E+01 
1.800E+01 2.401E+01 
2.000E+01 2.484E+01 
2.200E+01 2.562E+01 
2.400E+01 2.634E+01 
2.600E+01 2.700E+01 
2.800E+01 2.761E+01 
3.000E+01 2.819E+01 
4.000E+01 3.056E+01 
5.000E+01 3.238E+01 
6.000E+01 3.380E+01 
8.000E+01 3.594E+01 
1.000E+02 3.746E+01 
1.500E+02 3.989E+01 
2.000E+02 4.135E+01 
3.000E+02 4.307E+01 
4.000E+02 4.406E+01 
5.000E+02 4.471E+01 
6.000E+02 4.518E+01 
8.000E+02 4.580E+01 
1.000E+03 4.621E+01 
1.500E+03 4.680E+01 
2.000E+03 4.712E+01 
3.000E+03 4.747E+01 
4.000E+03 4.766E+01 
5.000E+03 4.777E+01 
6.000E+03 4.786E+01 
8.000E+03 4.797E+01 
1.000E+04 4.803E+01 
1.500E+04 4.813E+01 
2.000E+04 4.818E+01 
3.000E+04 4.823E+01 
4.000E+04 4.826E+01 
5.000E+04 4.828E+01 
6.000E+04 4.829E+01 
8.000E+04 4.830E+01 
1.000E+05 4.831E+01 