Photon    Tot. w/  
Energy    Coherent (barn/atom)

1.000E-03 2.281E+05 
1.103E-03 1.809E+05 
1.217E-03 1.435E+05 
1.217E-03 5.258E+05 
1.232E-03 5.614E+05 
1.248E-03 5.994E+05 
1.248E-03 8.024E+05 
1.328E-03 7.329E+05 
1.414E-03 6.696E+05 
1.414E-03 7.580E+05 
1.500E-03 6.601E+05 
2.000E-03 3.269E+05 
3.000E-03 1.159E+05 
4.000E-03 5.423E+04 
5.000E-03 2.981E+04 
6.000E-03 1.819E+04 
8.000E-03 8.308E+03 
1.000E-02 4.512E+03 
1.110E-02 3.389E+03 
1.110E-02 2.389E+04 
1.500E-02 1.103E+04 
2.000E-02 5.090E+03 
3.000E-02 1.670E+03 
4.000E-02 7.483E+02 
5.000E-02 4.021E+02 
6.000E-02 2.439E+02 
8.000E-02 1.146E+02 
1.000E-01 6.691E+01 
1.500E-01 3.003E+01 
2.000E-01 2.002E+01 
3.000E-01 1.364E+01 
4.000E-01 1.125E+01 
5.000E-01 9.901E+00 
6.000E-01 8.986E+00 
8.000E-01 7.748E+00 
1.000E+00 6.905E+00 
1.022E+00 6.827E+00 
1.250E+00 6.150E+00 
1.500E+00 5.615E+00 
2.000E+00 4.927E+00 
2.044E+00 4.882E+00 
3.000E+00 4.249E+00 
4.000E+00 3.948E+00 
5.000E+00 3.808E+00 
6.000E+00 3.746E+00 
7.000E+00 3.732E+00 
8.000E+00 3.742E+00 
9.000E+00 3.769E+00 
1.000E+01 3.805E+00 
1.100E+01 3.846E+00 
1.200E+01 3.889E+00 
1.300E+01 3.935E+00 
1.400E+01 3.981E+00 
1.500E+01 4.027E+00 
1.600E+01 4.074E+00 
1.800E+01 4.164E+00 
2.000E+01 4.253E+00 
2.200E+01 4.339E+00 
2.400E+01 4.420E+00 
2.600E+01 4.497E+00 
2.800E+01 4.571E+00 
3.000E+01 4.640E+00 
4.000E+01 4.941E+00 
5.000E+01 5.179E+00 
6.000E+01 5.375E+00 
8.000E+01 5.675E+00 
1.000E+02 5.895E+00 
1.500E+02 6.256E+00 
2.000E+02 6.479E+00 
3.000E+02 6.741E+00 
4.000E+02 6.894E+00 
5.000E+02 6.997E+00 
6.000E+02 7.070E+00 
8.000E+02 7.168E+00 
1.000E+03 7.232E+00 
1.500E+03 7.325E+00 
2.000E+03 7.377E+00 
3.000E+03 7.432E+00 
4.000E+03 7.462E+00 
5.000E+03 7.482E+00 
6.000E+03 7.494E+00 
8.000E+03 7.512E+00 
1.000E+04 7.523E+00 
1.500E+04 7.538E+00 
2.000E+04 7.546E+00 
3.000E+04 7.555E+00 
4.000E+04 7.560E+00 
5.000E+04 7.562E+00 
6.000E+04 7.564E+00 
8.000E+04 7.567E+00 
1.000E+05 7.568E+00 