Photon    Tot. w/  
Energy    Coherent (barn/atom)

1.000E-03 1.124E+06 
1.500E-03 5.017E+05 
1.809E-03 3.383E+05 
1.809E-03 4.016E+05 
1.840E-03 5.928E+05 
1.872E-03 8.746E+05 
1.872E-03 9.534E+05 
2.000E-03 1.197E+06 
2.281E-03 8.633E+05 
2.281E-03 1.001E+06 
2.423E-03 8.645E+05 
2.575E-03 7.466E+05 
2.575E-03 7.934E+05 
2.694E-03 7.138E+05 
2.820E-03 6.422E+05 
2.820E-03 6.698E+05 
3.000E-03 5.807E+05 
4.000E-03 2.920E+05 
5.000E-03 1.689E+05 
6.000E-03 1.073E+05 
8.000E-03 5.206E+04 
1.000E-02 2.958E+04 
1.021E-02 2.809E+04 
1.021E-02 7.125E+04 
1.085E-02 6.060E+04 
1.154E-02 5.155E+04 
1.154E-02 7.058E+04 
1.182E-02 6.671E+04 
1.210E-02 6.305E+04 
1.210E-02 7.271E+04 
1.500E-02 4.240E+04 
2.000E-02 2.006E+04 
3.000E-02 6.939E+03 
4.000E-02 3.257E+03 
5.000E-02 1.817E+03 
6.000E-02 1.133E+03 
6.953E-02 7.790E+02 
6.953E-02 3.429E+03 
8.000E-02 2.384E+03 
1.000E-01 1.355E+03 
1.500E-01 4.827E+02 
2.000E-01 2.395E+02 
3.000E-01 9.886E+01 
4.000E-01 5.876E+01 
5.000E-01 4.207E+01 
6.000E-01 3.337E+01 
8.000E-01 2.463E+01 
1.000E+00 2.020E+01 
1.022E+00 1.983E+01 
1.250E+00 1.702E+01 
1.500E+00 1.526E+01 
2.000E+00 1.353E+01 
2.044E+00 1.344E+01 
3.000E+00 1.244E+01 
4.000E+00 1.233E+01 
5.000E+00 1.253E+01 
6.000E+00 1.285E+01 
7.000E+00 1.324E+01 
8.000E+00 1.365E+01 
9.000E+00 1.407E+01 
1.000E+01 1.449E+01 
1.100E+01 1.490E+01 
1.200E+01 1.531E+01 
1.300E+01 1.570E+01 
1.400E+01 1.609E+01 
1.500E+01 1.644E+01 
1.600E+01 1.679E+01 
1.800E+01 1.741E+01 
2.000E+01 1.799E+01 
2.200E+01 1.853E+01 
2.400E+01 1.903E+01 
2.600E+01 1.949E+01 
2.800E+01 1.992E+01 
3.000E+01 2.031E+01 
4.000E+01 2.198E+01 
5.000E+01 2.326E+01 
6.000E+01 2.427E+01 
8.000E+01 2.578E+01 
1.000E+02 2.685E+01 
1.500E+02 2.858E+01 
2.000E+02 2.962E+01 
3.000E+02 3.083E+01 
4.000E+02 3.153E+01 
5.000E+02 3.199E+01 
6.000E+02 3.232E+01 
8.000E+02 3.276E+01 
1.000E+03 3.305E+01 
1.500E+03 3.345E+01 
2.000E+03 3.367E+01 
3.000E+03 3.393E+01 
4.000E+03 3.405E+01 
5.000E+03 3.414E+01 
6.000E+03 3.419E+01 
8.000E+03 3.427E+01 
1.000E+04 3.432E+01 
1.500E+04 3.439E+01 
2.000E+04 3.443E+01 
3.000E+04 3.445E+01 
4.000E+04 3.447E+01 
5.000E+04 3.449E+01 
6.000E+04 3.449E+01 
8.000E+04 3.451E+01 
1.000E+05 3.451E+01