Photon    Tot. w/  
Energy    Coherent  (cm2/g)

1.000E-03 3.311E+03 
1.500E-03 1.083E+03 
2.000E-03 4.770E+02 
3.000E-03 1.456E+02 
4.000E-03 6.166E+01 
5.000E-03 3.144E+01 
6.000E-03 1.808E+01 
8.000E-03 7.559E+00 
1.000E-02 3.879E+00 
1.500E-02 1.236E+00 
2.000E-02 6.179E-01 
3.000E-02 3.066E-01 
4.000E-02 2.288E-01 
5.000E-02 1.980E-01 
6.000E-02 1.817E-01 
8.000E-02 1.639E-01 
1.000E-01 1.529E-01 
1.500E-01 1.353E-01 
2.000E-01 1.233E-01 
3.000E-01 1.068E-01 
4.000E-01 9.557E-02 
5.000E-01 8.719E-02 
6.000E-01 8.063E-02 
8.000E-01 7.081E-02 
1.000E+00 6.364E-02 
1.022E+00 6.299E-02 
1.250E+00 5.693E-02 
1.500E+00 5.180E-02 
2.000E+00 4.450E-02 
2.044E+00 4.397E-02 
3.000E+00 3.579E-02 
4.000E+00 3.074E-02 
5.000E+00 2.742E-02 
6.000E+00 2.511E-02 
7.000E+00 2.340E-02 
8.000E+00 2.209E-02 
9.000E+00 2.106E-02 
1.000E+01 2.024E-02 
1.100E+01 1.957E-02 
1.200E+01 1.901E-02 
1.300E+01 1.855E-02 
1.400E+01 1.816E-02 
1.500E+01 1.782E-02 
1.600E+01 1.754E-02 
1.800E+01 1.708E-02 
2.000E+01 1.673E-02 
2.200E+01 1.647E-02 
2.400E+01 1.626E-02 
2.600E+01 1.611E-02 
2.800E+01 1.598E-02 
3.000E+01 1.588E-02 
4.000E+01 1.566E-02 
5.000E+01 1.566E-02 
6.000E+01 1.575E-02 
8.000E+01 1.599E-02 
1.000E+02 1.626E-02 
1.500E+02 1.684E-02 
2.000E+02 1.728E-02 
3.000E+02 1.787E-02 
4.000E+02 1.826E-02 
5.000E+02 1.853E-02 
6.000E+02 1.873E-02 
8.000E+02 1.900E-02 
1.000E+03 1.918E-02 
1.500E+03 1.946E-02 
2.000E+03 1.962E-02 
3.000E+03 1.979E-02 
4.000E+03 1.989E-02 
5.000E+03 1.995E-02 
6.000E+03 1.999E-02 
8.000E+03 2.005E-02 
1.000E+04 2.009E-02 
1.500E+04 2.014E-02 
2.000E+04 2.017E-02 
3.000E+04 2.020E-02 
4.000E+04 2.021E-02 
5.000E+04 2.022E-02 
6.000E+04 2.023E-02 
8.000E+04 2.024E-02 
1.000E+05 2.024E-02