Photon    Tot. w/  
Energy    Coherent (barn/atom)

1.000E-03 1.207E+01 
1.500E-03 3.595E+00 
2.000E-03 1.773E+00 
3.000E-03 9.392E-01 
4.000E-03 7.609E-01 
5.000E-03 7.019E-01 
6.000E-03 6.764E-01 
8.000E-03 6.551E-01 
1.000E-02 6.451E-01 
1.500E-02 6.301E-01 
2.000E-02 6.184E-01 
3.000E-02 5.976E-01 
4.000E-02 5.788E-01 
5.000E-02 5.616E-01 
6.000E-02 5.457E-01 
8.000E-02 5.173E-01 
1.000E-01 4.928E-01 
1.500E-01 4.437E-01 
2.000E-01 4.065E-01 
3.000E-01 3.536E-01 
4.000E-01 3.168E-01 
5.000E-01 2.893E-01 
6.000E-01 2.676E-01 
8.000E-01 2.351E-01 
1.000E+00 2.114E-01 
1.022E+00 2.092E-01 
1.250E+00 1.890E-01 
1.500E+00 1.718E-01 
2.000E+00 1.468E-01 
2.044E+00 1.450E-01 
3.000E+00 1.158E-01 
4.000E+00 9.719E-02 
5.000E+00 8.451E-02 
6.000E+00 7.529E-02 
7.000E+00 6.826E-02 
8.000E+00 6.270E-02 
9.000E+00 5.820E-02 
1.000E+01 5.447E-02 
1.100E+01 5.133E-02 
1.200E+01 4.864E-02 
1.300E+01 4.632E-02 
1.400E+01 4.428E-02 
1.500E+01 4.250E-02 
1.600E+01 4.092E-02 
1.800E+01 3.824E-02 
2.000E+01 3.604E-02 
2.200E+01 3.423E-02 
2.400E+01 3.269E-02 
2.600E+01 3.138E-02 
2.800E+01 3.024E-02 
3.000E+01 2.926E-02 
4.000E+01 2.581E-02 
5.000E+01 2.376E-02 
6.000E+01 2.241E-02 
8.000E+01 2.084E-02 
1.000E+02 1.999E-02 
1.500E+02 1.909E-02 
2.000E+02 1.881E-02 
3.000E+02 1.876E-02 
4.000E+02 1.887E-02 
5.000E+02 1.900E-02 
6.000E+02 1.912E-02 
8.000E+02 1.932E-02 
1.000E+03 1.948E-02 
1.500E+03 1.974E-02 
2.000E+03 1.990E-02 
3.000E+03 2.010E-02 
4.000E+03 2.022E-02 
5.000E+03 2.030E-02 
6.000E+03 2.036E-02 
8.000E+03 2.044E-02 
1.000E+04 2.049E-02 
1.500E+04 2.056E-02 
2.000E+04 2.060E-02 
3.000E+04 2.064E-02 
4.000E+04 2.067E-02 
5.000E+04 2.068E-02 
6.000E+04 2.070E-02 
8.000E+04 2.071E-02 
1.000E+05 2.072E-02
