Photon    Tot. w/  
Energy    Coherent (barn/atom)

1.000E-03 9.041E+03 
1.500E-03 2.689E+03 
2.000E-03 1.118E+03 
3.000E-03 3.183E+02 
4.000E-03 1.300E+02 
5.000E-03 6.538E+01 
6.000E-03 3.783E+01 
8.000E-03 1.682E+01 
1.000E-02 9.676E+00 
1.500E-02 4.594E+00 
2.000E-02 3.369E+00 
3.000E-02 2.682E+00 
4.000E-02 2.454E+00 
5.000E-02 2.326E+00 
6.000E-02 2.234E+00 
8.000E-02 2.096E+00 
1.000E-01 1.987E+00 
1.500E-01 1.781E+00 
2.000E-01 1.630E+00 
3.000E-01 1.416E+00 
4.000E-01 1.268E+00 
5.000E-01 1.158E+00 
6.000E-01 1.071E+00 
8.000E-01 9.407E-01 
1.000E+00 8.458E-01 
1.022E+00 8.368E-01 
1.250E+00 7.563E-01 
1.500E+00 6.880E-01 
2.000E+00 5.893E-01 
2.044E+00 5.823E-01 
3.000E+00 4.696E-01 
4.000E+00 3.986E-01 
5.000E+00 3.513E-01 
6.000E+00 3.174E-01 
7.000E+00 2.920E-01 
8.000E+00 2.722E-01 
9.000E+00 2.565E-01 
1.000E+01 2.435E-01 
1.100E+01 2.328E-01 
1.200E+01 2.237E-01 
1.300E+01 2.160E-01 
1.400E+01 2.093E-01 
1.500E+01 2.036E-01 
1.600E+01 1.985E-01 
1.800E+01 1.901E-01 
2.000E+01 1.836E-01 
2.200E+01 1.782E-01 
2.400E+01 1.738E-01 
2.600E+01 1.702E-01 
2.800E+01 1.671E-01 
3.000E+01 1.646E-01 
4.000E+01 1.564E-01 
5.000E+01 1.523E-01 
6.000E+01 1.503E-01 
8.000E+01 1.488E-01 
1.000E+02 1.488E-01 
1.500E+02 1.506E-01 
2.000E+02 1.527E-01 
3.000E+02 1.566E-01 
4.000E+02 1.593E-01 
5.000E+02 1.613E-01 
6.000E+02 1.629E-01 
8.000E+02 1.652E-01 
1.000E+03 1.669E-01 
1.500E+03 1.694E-01 
2.000E+03 1.708E-01 
3.000E+03 1.725E-01 
4.000E+03 1.734E-01 
5.000E+03 1.741E-01 
6.000E+03 1.746E-01 
8.000E+03 1.752E-01 
1.000E+04 1.755E-01 
1.500E+04 1.760E-01 
2.000E+04 1.764E-01 
3.000E+04 1.766E-01 
4.000E+04 1.769E-01 
5.000E+04 1.769E-01 
6.000E+04 1.770E-01 
8.000E+04 1.771E-01 
1.000E+05 1.771E-01 