Photon    Tot. w/  
Energy    Coherent (barn/atom)

1.000E-03 8.425E+05 
1.500E-03 3.153E+05 
2.000E-03 1.509E+05 
3.000E-03 5.171E+04 
4.000E-03 2.381E+04 
5.000E-03 1.297E+04 
6.000E-03 7.868E+03 
7.112E-03 4.933E+03 
7.112E-03 3.781E+04 
8.000E-03 2.834E+04 
1.000E-02 1.583E+04 
1.500E-02 5.294E+03 
2.000E-02 2.382E+03 
3.000E-02 7.582E+02 
4.000E-02 3.366E+02 
5.000E-02 1.815E+02 
6.000E-02 1.117E+02 
8.000E-02 5.520E+01 
1.000E-01 3.447E+01 
1.500E-01 1.822E+01 
2.000E-01 1.354E+01 
3.000E-01 1.019E+01 
4.000E-01 8.717E+00 
5.000E-01 7.803E+00 
6.000E-01 7.144E+00 
8.000E-01 6.213E+00 
1.000E+00 5.559E+00 
1.022E+00 5.498E+00 
1.250E+00 4.961E+00 
1.500E+00 4.528E+00 
2.000E+00 3.955E+00 
2.044E+00 3.917E+00 
3.000E+00 3.358E+00 
4.000E+00 3.071E+00 
5.000E+00 2.918E+00 
6.000E+00 2.835E+00 
7.000E+00 2.792E+00 
8.000E+00 2.774E+00 
9.000E+00 2.770E+00 
1.000E+01 2.777E+00 
1.100E+01 2.788E+00 
1.200E+01 2.805E+00 
1.300E+01 2.823E+00 
1.400E+01 2.845E+00 
1.500E+01 2.868E+00 
1.600E+01 2.892E+00 
1.800E+01 2.940E+00 
2.000E+01 2.989E+00 
2.200E+01 3.039E+00 
2.400E+01 3.086E+00 
2.600E+01 3.132E+00 
2.800E+01 3.175E+00 
3.000E+01 3.217E+00 
4.000E+01 3.400E+00 
5.000E+01 3.550E+00 
6.000E+01 3.673E+00 
8.000E+01 3.869E+00 
1.000E+02 4.015E+00 
1.500E+02 4.259E+00 
2.000E+02 4.411E+00 
3.000E+02 4.592E+00 
4.000E+02 4.701E+00 
5.000E+02 4.773E+00 
6.000E+02 4.824E+00 
8.000E+02 4.895E+00 
1.000E+03 4.940E+00 
1.500E+03 5.007E+00 
2.000E+03 5.043E+00 
3.000E+03 5.084E+00 
4.000E+03 5.105E+00 
5.000E+03 5.120E+00 
6.000E+03 5.129E+00 
8.000E+03 5.141E+00 
1.000E+04 5.149E+00 
1.500E+04 5.161E+00 
2.000E+04 5.167E+00 
3.000E+04 5.173E+00 
4.000E+04 5.176E+00 
5.000E+04 5.179E+00 
6.000E+04 5.180E+00 
8.000E+04 5.182E+00 
1.000E+05 5.183E+00