Photon    Tot. w/  
Energy    Coherent (cm2 / g)

1.000E-03 7.801E+03 
1.035E-03 7.252E+03 
1.072E-03 6.744E+03 
1.072E-03 7.029E+03 
1.072E-03 7.932E+03 
1.072E-03 7.028E+03 
1.072E-03 7.932E+03 
1.500E-03 3.808E+03 
2.000E-03 1.924E+03 
3.000E-03 7.060E+02 
4.000E-03 3.401E+02 
4.557E-03 2.433E+02 
4.557E-03 6.631E+02 
4.702E-03 6.211E+02 
4.852E-03 5.819E+02 
4.852E-03 7.763E+02 
5.000E-03 7.320E+02 
5.188E-03 6.654E+02 
5.188E-03 7.646E+02 
6.000E-03 5.336E+02 
8.000E-03 2.519E+02 
1.000E-02 1.400E+02 
1.500E-02 4.738E+01 
2.000E-02 2.185E+01 
3.000E-02 7.358E+00 
3.317E-02 5.636E+00 
3.317E-02 3.042E+01 
4.000E-02 1.877E+01 
5.000E-02 1.048E+01 
6.000E-02 6.450E+00 
8.000E-02 2.999E+00 
1.000E-01 1.669E+00 
1.500E-01 6.112E-01 
2.000E-01 3.285E-01 
3.000E-01 1.658E-01 
4.000E-01 1.171E-01 
5.000E-01 9.497E-02 
6.000E-01 8.225E-02 
8.000E-01 6.755E-02 
1.000E+00 5.881E-02 
1.022E+00 5.801E-02 
1.250E+00 5.162E-02 
1.500E+00 4.697E-02 
2.000E+00 4.149E-02 
2.044E+00 4.115E-02 
3.000E+00 3.681E-02 
4.000E+00 3.519E-02 
5.000E+00 3.477E-02 
6.000E+00 3.487E-02 
7.000E+00 3.528E-02 
8.000E+00 3.585E-02 
9.000E+00 3.652E-02 
1.000E+01 3.723E-02 
1.100E+01 3.796E-02 
1.200E+01 3.870E-02 
1.300E+01 3.943E-02 
1.400E+01 4.013E-02 
1.500E+01 4.082E-02 
1.600E+01 4.146E-02 
1.800E+01 4.269E-02 
2.000E+01 4.386E-02 
2.200E+01 4.496E-02 
2.400E+01 4.598E-02 
2.600E+01 4.694E-02 
2.800E+01 4.784E-02 
3.000E+01 4.869E-02 
4.000E+01 5.221E-02 
5.000E+01 5.498E-02 
6.000E+01 5.720E-02 
8.000E+01 6.052E-02 
1.000E+02 6.297E-02 
1.500E+02 6.695E-02 
2.000E+02 6.939E-02 
3.000E+02 7.226E-02 
4.000E+02 7.392E-02 
5.000E+02 7.501E-02 
6.000E+02 7.581E-02 
8.000E+02 7.686E-02 
1.000E+03 7.755E-02 
1.500E+03 7.857E-02 
2.000E+03 7.914E-02 
3.000E+03 7.972E-02 
4.000E+03 8.005E-02 
5.000E+03 8.026E-02 
6.000E+03 8.039E-02 
8.000E+03 8.059E-02 
1.000E+04 8.072E-02 